## Filter transmission curves for all possible HRC filters
## EE is encircled energy (%) at a given radius in pixels
## arcsec. EEERR is the std dev. 
## From M Sirianni
##
## K Anderson, 3-10-2003
##
# 1	radius_pix
# 2	radius_asec
# 3	EE_F220W
# 4	EEERR_F220W
# 5	EE_F250W
# 6	EEERR_F250W
# 7	EE_F330W
# 8	EEERR_F330W
# 9	EE_F334N
# 10	EEERR_F334N
# 11	EE_F435W
# 12	EEERR_F435W
# 13	EE_F475W
# 14	EEERR_F475W
# 15	EE_F502N
# 16	EEERR_F502N
# 17	EE_F550M
# 18	EEERR_F550M
# 19	EE_F555W
# 20	EEERR_F555W
# 21	EE_F606W
# 22	EEERR_F606W
# 23	EE_F625W
# 24	EEERR_F625W
# 25	EE_F658N
# 26	EEERR_F658N
# 27	EE_F660N
# 28	EEERR_F660N
# 29	EE_F775W
# 30	EEERR_F775W
# 31	EE_F814W
# 32	EEERR_F814W
# 33	EE_F850LP
# 34	EEERR_F850LP
# 35	EE_F892N
# 36	EEERR_F892N
##                     F220W            F250W          F330W           F334N           F435W           F475W           F502N           F550M           F555W           F606W           F625W            F658N           F660N            F775W           F814W          F850LP          F892N  
##   pix     asec    ee      std     ee       std   avge    stdev  avge     stdev   avge    stdev   avge    stdev   average stdev   avge    stdev   avge    stdev   avge    stdev   avge     stdev  avge    stdev   avge    stdev   avge    stdev   avge    stdev   avge    stdev   avge    stdev
   1.000   0.025  23.458   1.435  24.475   1.333  25.009   1.074  23.786   1.099  25.361   0.517  23.003   0.483  23.398   0.480  22.343   0.692  22.232   0.174  22.095   0.647  20.800   0.308  19.747   0.855  20.051   0.735  17.095   0.376  15.786   0.215  10.871   0.291  11.768   0.054
   2.000   0.050  50.648   1.016  53.436   1.010  54.220   0.756  50.780   0.184  53.187   0.311  52.306   0.584  51.416   0.875  50.807   0.271  51.448   0.319  50.507   0.394  48.983   0.288  47.374   0.312  46.786   0.201  43.334   0.111  40.254   0.759  29.387   0.639  32.416   0.250
   3.000   0.075  62.258   0.661  65.498   0.574  67.868   0.513  65.664   0.067  68.685   0.516  67.792   0.158  66.394   0.187  64.646   0.284  65.648   0.279  63.968   0.336  62.035   0.272  59.958   0.140  59.374   0.353  55.983   0.133  53.399   0.133  41.325   0.772  45.292   0.222
   4.000   0.100  68.578   0.749  72.019   0.260  73.578   0.404  73.303   0.816  76.201   0.286  76.398   0.061  76.137   0.106  75.286   0.195  75.892   0.224  74.211   0.372  72.327   0.318  69.691   0.227  69.123   0.377  63.201   0.199  59.932   0.063  46.512   0.701  49.805   0.484
   5.000   0.125  73.298   0.111  76.158   0.184  77.484   0.218  77.062   0.660  79.065   0.137  79.563   0.100  79.430   0.283  80.363   0.098  80.321   0.133  79.891   0.213  79.507   0.218  78.030   0.301  77.259   0.347  72.269   0.234  68.315   0.062  52.558   0.728  56.137   0.519
   6.000   0.150  75.774   0.196  78.805   0.072  80.527   0.045  80.469   0.540  81.343   0.072  81.307   0.204  81.217   0.221  81.932   0.048  81.831   0.210  81.760   0.220  81.644   0.317  80.743   0.455  80.243   0.313  77.874   0.174  74.215   0.019  59.200   0.768  63.129   0.583
   7.000   0.175  77.089   0.094  80.337   0.083  82.468   0.219  82.944   0.370  83.682   0.083  83.306   0.203  82.943   0.254  83.302   0.051  83.459   0.148  83.236   0.141  82.923   0.174  82.042   0.322  81.582   0.130  79.846   0.141  76.586   0.071  63.364   0.658  66.937   0.581
   8.000   0.200  78.218   0.163  81.409   0.099  83.719   0.259  84.294   0.356  85.809   0.036  85.283   0.252  84.832   0.265  84.649   0.103  85.163   0.135  84.727   0.119  84.168   0.131  83.148   0.323  82.639   0.108  80.541   0.199  77.534   0.094  65.386   0.541  68.319   0.586
   9.000   0.225  79.127   0.168  82.316   0.147  84.578   0.264  85.124   0.351  87.030   0.083  86.813   0.294  86.717   0.304  86.309   0.102  86.936   0.132  86.282   0.120  85.457   0.117  84.353   0.339  83.802   0.109  81.421   0.160  78.157   0.198  66.511   0.479  69.071   0.576
  10.000   0.250  80.108   0.174  82.990   0.152  85.279   0.260  85.785   0.348  87.537   0.206  87.732   0.326  88.108   0.139  87.931   0.097  88.324   0.113  87.634   0.116  86.862   0.120  85.461   0.338  84.869   0.116  82.405   0.143  79.045   0.175  67.374   0.454  69.703   0.570
  11.000   0.275  81.129   0.171  83.679   0.159  85.832   0.259  86.306   0.351  88.072   0.191  88.306   0.332  88.732   0.143  88.787   0.031  89.045   0.042  88.680   0.129  88.193   0.114  86.940   0.351  86.342   0.117  83.199   0.066  79.915   0.170  68.291   0.446  70.486   0.577
  12.000   0.300  82.078   0.171  84.429   0.159  86.317   0.258  86.741   0.354  88.735   0.069  88.794   0.318  89.145   0.139  89.401   0.114  89.626   0.110  89.391   0.149  89.119   0.106  88.154   0.358  87.531   0.131  84.375   0.144  80.903   0.176  69.200   0.442  71.311   0.590
  13.000   0.325  82.884   0.171  85.187   0.162  86.784   0.259  87.168   0.355  89.180   0.062  89.252   0.305  89.554   0.130  89.775   0.116  90.020   0.105  89.861   0.160  89.663   0.120  88.802   0.371  88.101   0.132  85.508   0.155  81.948   0.178  70.021   0.434  71.954   0.594
  14.000   0.350  83.581   0.174  85.875   0.170  87.260   0.264  87.588   0.358  89.535   0.059  89.663   0.299  90.048   0.120  90.129   0.109  90.426   0.098  90.256   0.162  90.027   0.133  89.610   0.139  88.481   0.143  86.262   0.061  82.826   0.176  70.943   0.430  72.797   0.594
  15.000   0.375  84.213   0.176  86.455   0.178  87.784   0.266  88.031   0.362  89.858   0.056  90.025   0.299  90.413   0.110  90.471   0.039  90.819   0.094  90.611   0.157  90.348   0.134  89.915   0.137  88.771   0.142  86.958   0.124  83.495   0.158  71.960   0.428  73.915   0.612
  16.000   0.400  84.808   0.179  86.949   0.184  88.331   0.262  88.552   0.360  90.185   0.056  90.335   0.297  90.673   0.109  90.882   0.029  91.161   0.091  90.937   0.152  90.689   0.127  90.163   0.138  89.039   0.140  87.346   0.124  83.982   0.146  72.825   0.422  74.758   0.617
  17.000   0.425  85.387   0.184  87.385   0.188  88.829   0.263  89.092   0.357  90.505   0.060  90.627   0.296  90.943   0.109  91.159   0.036  91.439   0.089  91.245   0.146  91.036   0.121  90.451   0.140  89.345   0.135  87.650   0.128  84.345   0.137  73.496   0.412  75.254   0.619
  18.000   0.450  85.946   0.186  87.783   0.188  89.231   0.270  89.531   0.354  90.826   0.063  90.918   0.297  91.214   0.106  91.382   0.043  91.689   0.088  91.536   0.140  91.356   0.119  90.853   0.143  89.781   0.124  87.922   0.129  84.654   0.135  74.035   0.404  75.645   0.626
  19.000   0.475  86.482   0.184  88.169   0.189  89.541   0.275  89.857   0.343  91.147   0.062  91.213   0.298  91.523   0.101  91.615   0.045  91.944   0.088  91.807   0.140  91.631   0.120  91.184   0.146  90.129   0.120  88.222   0.124  84.970   0.136  74.493   0.399  75.999   0.632
  20.000   0.500  86.985   0.179  88.556   0.189  89.809   0.277  90.109   0.339  91.477   0.066  91.518   0.300  91.775   0.098  91.866   0.043  92.197   0.091  92.047   0.140  91.859   0.122  91.397   0.140  90.327   0.119  88.562   0.121  85.319   0.137  74.919   0.394  76.359   0.629
  21.000   0.525  87.484   0.177  88.939   0.186  90.051   0.273  90.324   0.340  91.803   0.067  91.813   0.303  91.963   0.096  92.132   0.036  92.436   0.094  92.272   0.142  92.072   0.123  91.571   0.136  90.497   0.120  88.898   0.117  85.669   0.135  75.323   0.392  76.741   0.621
  22.000   0.550  87.987   0.177  89.309   0.181  90.284   0.270  90.527   0.335  92.107   0.069  92.093   0.307  92.199   0.096  92.369   0.035  92.670   0.096  92.499   0.144  92.295   0.123  91.783   0.133  90.713   0.122  89.201   0.118  85.991   0.134  75.733   0.391  77.084   0.616
  23.000   0.575  88.488   0.177  89.667   0.175  90.507   0.269  90.743   0.333  92.361   0.072  92.358   0.312  92.464   0.099  92.551   0.040  92.910   0.098  92.737   0.144  92.515   0.124  91.983   0.133  90.915   0.122  89.458   0.118  86.287   0.133  76.177   0.389  77.465   0.616
  24.000   0.600  88.991   0.178  90.025   0.169  90.734   0.270  90.969   0.332  92.557   0.072  92.601   0.317  92.784   0.100  92.742   0.046  93.156   0.098  92.978   0.147  92.721   0.127  92.194   0.139  91.131   0.123  89.690   0.116  86.569   0.132  76.637   0.388  77.963   0.610
  25.000   0.625  89.484   0.178  90.379   0.164  90.967   0.272  91.183   0.324  92.720   0.071  92.818   0.318  93.083   0.099  92.969   0.045  93.400   0.099  93.207   0.147  92.922   0.130  92.451   0.145  91.407   0.124  89.911   0.116  86.837   0.127  77.078   0.386  78.427   0.606
  26.000   0.650  89.971   0.180  90.727   0.160  91.202   0.273  91.415   0.320  92.868   0.068  93.001   0.319  93.282   0.099  93.236   0.039  93.637   0.100  93.427   0.149  93.117   0.133  92.644   0.145  91.602   0.126  90.132   0.116  87.092   0.124  77.483   0.383  78.774   0.607
  27.000   0.675  90.453   0.182  91.070   0.158  91.437   0.273  91.670   0.325  93.012   0.067  93.155   0.321  93.447   0.099  93.502   0.035  93.849   0.099  93.630   0.153  93.311   0.134  92.780   0.144  91.723   0.125  90.371   0.119  87.351   0.122  77.861   0.379  79.078   0.608
  28.000   0.700  90.938   0.184  91.410   0.157  91.665   0.269  91.916   0.325  93.149   0.067  93.293   0.321  93.592   0.096  93.722   0.041  94.031   0.099  93.818   0.154  93.510   0.133  92.923   0.144  91.850   0.125  90.606   0.119  87.611   0.120  78.223   0.374  79.381   0.604
  29.000   0.725  91.423   0.185  91.750   0.160  91.881   0.265  92.125   0.320  93.281   0.068  93.418   0.323  93.724   0.092  93.895   0.051  94.181   0.099  93.991   0.156  93.707   0.133  93.118   0.145  92.037   0.127  90.821   0.120  87.861   0.118  78.575   0.374  79.706   0.603
  30.000   0.750  91.900   0.187  92.082   0.164  92.091   0.262  92.315   0.322  93.413   0.066  93.539   0.324  93.839   0.089  94.041   0.058  94.303   0.099  94.148   0.156  93.896   0.135  93.300   0.147  92.222   0.129  91.018   0.122  88.095   0.114  78.926   0.374  80.051   0.605
  31.000   0.775  92.366   0.189  92.418   0.168  92.310   0.260  92.510   0.326  93.552   0.067  93.658   0.325  93.924   0.088  94.172   0.061  94.415   0.100  94.294   0.158  94.066   0.137  93.507   0.153  92.432   0.127  91.217   0.122  88.324   0.114  79.285   0.367  80.373   0.602
  32.000   0.800  92.793   0.188  92.758   0.171  92.535   0.259  92.710   0.327  93.694   0.069  93.777   0.324  94.010   0.088  94.292   0.059  94.522   0.099  94.426   0.158  94.220   0.138  93.754   0.156  92.676   0.123  91.414   0.122  88.552   0.111  79.654   0.357  80.697   0.597
  33.000   0.825  93.195   0.188  93.107   0.174  92.761   0.257  92.920   0.321  93.834   0.068  93.895   0.322  94.107   0.090  94.396   0.057  94.623   0.097  94.549   0.157  94.360   0.138  93.921   0.153  92.840   0.122  91.605   0.123  88.782   0.108  80.015   0.348  81.080   0.596
  34.000   0.850  93.564   0.187  93.311   0.116  92.982   0.256  93.146   0.313  93.975   0.070  94.016   0.320  94.215   0.088  94.485   0.056  94.718   0.094  94.659   0.158  94.478   0.139  94.045   0.147  92.954   0.122  91.802   0.125  89.009   0.106  80.362   0.346  81.454   0.596
  35.000   0.875  93.902   0.187  93.637   0.117  93.198   0.256  93.359   0.305  94.110   0.071  94.135   0.320  94.318   0.086  94.563   0.057  94.810   0.089  94.756   0.160  94.580   0.142  94.150   0.140  93.060   0.121  92.003   0.126  89.238   0.106  80.699   0.344  81.753   0.593
  36.000   0.900  94.211   0.188  93.948   0.116  93.401   0.258  93.553   0.293  94.242   0.070  94.249   0.320  94.402   0.087  94.640   0.058  94.902   0.085  94.852   0.161  94.671   0.142  94.252   0.137  93.158   0.120  92.199   0.123  89.459   0.105  81.025   0.340  82.018   0.587
  37.000   0.925  94.495   0.189  94.249   0.115  93.601   0.261  93.748   0.290  94.376   0.070  94.360   0.319  94.482   0.092  94.724   0.054  94.995   0.084  94.943   0.162  94.762   0.143  94.346   0.137  93.255   0.120  92.386   0.122  89.667   0.104  81.347   0.336  82.277   0.581
  38.000   0.950  94.761   0.193  94.542   0.116  93.794   0.261  93.954   0.293  94.509   0.068  94.472   0.317  94.571   0.095  94.816   0.050  95.085   0.084  95.033   0.163  94.845   0.144  94.444   0.136  93.366   0.119  92.557   0.123  89.868   0.105  81.664   0.334  82.548   0.578
  39.000   0.975  95.004   0.193  94.817   0.115  93.983   0.260  94.140   0.293  94.631   0.067  94.581   0.313  94.686   0.094  94.904   0.046  95.178   0.085  95.122   0.160  94.921   0.142  94.539   0.131  93.475   0.119  92.717   0.122  90.064   0.105  81.980   0.332  82.848   0.575
  40.000   1.000  95.228   0.194  95.077   0.116  94.176   0.262  94.301   0.291  94.760   0.070  94.696   0.312  94.817   0.096  94.985   0.044  95.274   0.087  95.216   0.158  94.997   0.142  94.608   0.128  93.552   0.117  92.868   0.125  90.253   0.107  82.308   0.329  83.141   0.578
  41.000   1.025  95.436   0.193  95.322   0.118  94.378   0.264  94.457   0.290  94.888   0.071  94.814   0.309  94.922   0.097  95.065   0.042  95.370   0.089  95.308   0.158  95.073   0.141  94.670   0.129  93.608   0.116  93.011   0.127  90.435   0.109  82.640   0.324  83.428   0.579
  42.000   1.050  95.635   0.191  95.550   0.118  94.583   0.265  94.628   0.297  95.014   0.068  94.930   0.309  95.008   0.098  95.152   0.042  95.465   0.089  95.394   0.158  95.150   0.139  94.735   0.129  93.679   0.115  93.142   0.127  90.608   0.108  83.249   0.133  83.756   0.579
  43.000   1.075  95.819   0.193  95.766   0.117  94.796   0.262  94.821   0.302  95.144   0.069  95.041   0.311  95.096   0.097  95.248   0.043  95.554   0.093  95.481   0.159  95.227   0.135  94.796   0.130  93.755   0.113  93.267   0.127  90.777   0.106  83.557   0.126  84.099   0.574
  44.000   1.100  95.980   0.195  95.969   0.115  95.009   0.260  95.031   0.303  95.272   0.067  95.150   0.310  95.187   0.097  95.346   0.044  95.643   0.094  95.567   0.161  95.309   0.134  94.865   0.133  93.836   0.109  93.387   0.129  90.942   0.106  83.861   0.124  84.387   0.570
  45.000   1.125  96.128   0.195  96.151   0.111  95.215   0.260  95.262   0.306  95.399   0.068  95.261   0.309  95.289   0.102  95.435   0.043  95.730   0.095  95.650   0.162  95.388   0.136  94.954   0.136  93.934   0.105  93.502   0.129  91.098   0.106  84.156   0.121  84.636   0.570
  46.000   1.150  96.269   0.192  96.319   0.111  95.413   0.257  95.506   0.308  95.530   0.069  95.374   0.308  95.378   0.104  95.520   0.039  95.816   0.094  95.735   0.161  95.467   0.137  95.031   0.136  94.021   0.104  93.612   0.128  91.247   0.105  84.437   0.119  84.879   0.569
  47.000   1.175  96.391   0.188  96.480   0.111  95.605   0.259  95.702   0.311  95.645   0.069  95.479   0.309  95.465   0.100  95.598   0.035  95.908   0.095  95.813   0.159  95.544   0.135  95.091   0.133  94.085   0.104  93.716   0.129  91.302   0.049  84.712   0.115  85.118   0.568
  48.000   1.200  96.503   0.184  96.621   0.111  95.783   0.258  95.860   0.310  95.759   0.069  95.578   0.309  95.564   0.094  95.671   0.036  95.995   0.097  95.888   0.160  95.612   0.135  95.165   0.130  94.145   0.105  93.818   0.130  91.534   0.101  84.976   0.109  85.357   0.564
  49.000   1.225  96.612   0.182  96.753   0.112  95.952   0.256  96.039   0.309  95.877   0.069  95.681   0.305  95.677   0.087  95.746   0.038  96.082   0.098  95.970   0.159  95.683   0.134  95.274   0.135  94.208   0.107  93.919   0.128  91.676   0.097  85.232   0.104  85.596   0.558
  50.000   1.250  96.713   0.182  96.873   0.111  96.113   0.255  96.219   0.303  95.995   0.070  95.781   0.302  95.797   0.081  95.823   0.037  96.164   0.099  96.051   0.159  95.758   0.132  95.392   0.148  94.280   0.110  94.015   0.129  91.812   0.095  85.485   0.098  85.821   0.551
  51.000   1.275  96.800   0.179  96.984   0.109  96.268   0.253  96.374   0.292  96.110   0.070  95.883   0.300  95.905   0.079  95.899   0.036  96.243   0.096  96.129   0.159  95.834   0.130  95.494   0.145  94.356   0.110  94.112   0.130  91.943   0.094  85.729   0.094  86.049   0.545
  52.000   1.300  96.887   0.176  97.095   0.110  96.417   0.252  96.522   0.296  96.220   0.070  95.983   0.297  95.992   0.079  95.978   0.039  96.327   0.093  96.205   0.159  95.911   0.127  95.596   0.141  94.453   0.110  94.208   0.133  92.072   0.093  85.969   0.089  86.292   0.539
  53.000   1.325  96.968   0.176  97.191   0.113  96.552   0.253  96.672   0.293  96.326   0.070  96.084   0.294  96.073   0.078  96.059   0.042  96.414   0.092  96.285   0.155  95.985   0.124  95.682   0.148  94.536   0.111  94.303   0.134  92.204   0.092  86.205   0.082  86.518   0.536
  54.000   1.350  97.051   0.175  97.410   0.175  96.684   0.253  96.812   0.288  96.309   0.143  96.186   0.287  96.163   0.079  96.148   0.040  96.502   0.091  96.368   0.151  96.060   0.121  95.752   0.159  94.602   0.113  94.397   0.133  92.331   0.090  86.439   0.076  86.717   0.530
  55.000   1.375  97.128   0.177  97.502   0.180  96.809   0.255  96.949   0.287  96.423   0.141  96.279   0.287  96.260   0.077  96.232   0.039  96.588   0.092  96.444   0.149  96.130   0.120  95.806   0.161  94.664   0.115  94.493   0.131  92.455   0.089  86.670   0.074  86.906   0.527
  56.000   1.400  97.197   0.181  97.584   0.183  96.927   0.254  97.074   0.288  96.535   0.138  96.372   0.285  96.348   0.073  96.309   0.044  96.665   0.092  96.515   0.149  96.203   0.119  95.861   0.162  94.731   0.115  94.590   0.131  92.581   0.087  86.894   0.073  87.089   0.531
  57.000   1.425  97.265   0.183  97.656   0.181  97.042   0.249  97.184   0.293  96.652   0.134  96.469   0.283  96.422   0.073  96.384   0.048  96.735   0.094  96.587   0.149  96.277   0.119  95.920   0.160  94.801   0.119  94.684   0.133  92.707   0.085  87.113   0.071  87.286   0.526
  58.000   1.450  97.327   0.183  97.730   0.177  97.143   0.247  97.289   0.300  96.760   0.133  96.561   0.286  96.482   0.075  96.457   0.048  96.885   0.045  96.659   0.150  96.347   0.119  95.970   0.160  94.868   0.123  94.775   0.133  92.831   0.085  87.332   0.070  87.492   0.525
  59.000   1.475  97.391   0.187  97.800   0.175  97.233   0.248  97.389   0.301  96.864   0.133  96.659   0.285  96.553   0.076  96.528   0.046  96.875   0.093  96.733   0.149  96.414   0.119  96.039   0.160  94.954   0.119  94.864   0.131  92.948   0.086  87.548   0.069  87.687   0.522
  60.000   1.500  97.463   0.188  97.865   0.179  97.321   0.250  97.485   0.297  96.975   0.139  96.753   0.285  96.637   0.076  96.602   0.046  96.947   0.092  96.810   0.145  96.483   0.115  96.099   0.164  95.034   0.113  94.955   0.132  93.062   0.086  87.761   0.063  87.887   0.519
  61.000   1.525  97.519   0.186  97.927   0.182  97.405   0.250  97.579   0.302  97.084   0.140  96.843   0.283  96.715   0.078  96.671   0.045  97.017   0.090  96.883   0.144  96.550   0.114  96.142   0.164  95.091   0.111  95.045   0.131  93.179   0.085  87.973   0.061  88.089   0.518
  62.000   1.550  97.566   0.184  97.989   0.183  97.486   0.251  97.659   0.314  97.190   0.135  96.934   0.282  96.780   0.077  96.737   0.043  97.088   0.090  96.953   0.143  96.615   0.110  96.188   0.158  95.142   0.113  95.136   0.128  93.300   0.085  88.177   0.058  88.280   0.515
  63.000   1.575  97.621   0.183  98.047   0.184  97.564   0.258  97.740   0.319  97.289   0.133  97.022   0.286  96.847   0.076  96.801   0.045  97.162   0.092  97.023   0.141  96.678   0.110  96.259   0.152  95.212   0.116  95.225   0.128  93.415   0.085  88.376   0.059  88.457   0.514
  64.000   1.600  97.672   0.185  98.101   0.185  97.830   0.163  97.808   0.319  97.385   0.134  97.112   0.286  96.934   0.073  96.861   0.045  97.237   0.093  97.096   0.137  96.739   0.108  96.337   0.153  95.288   0.117  95.313   0.129  93.530   0.085  88.577   0.059  88.628   0.507
  65.000   1.625  97.720   0.184  98.161   0.185  97.695   0.260  97.864   0.327  97.478   0.136  97.206   0.282  97.038   0.068  96.919   0.046  97.303   0.091  97.165   0.134  96.800   0.109  96.416   0.153  95.364   0.119  95.400   0.128  93.646   0.083  88.780   0.051  88.804   0.497
  66.000   1.650  97.767   0.186  98.213   0.185  97.954   0.163  97.929   0.332  97.570   0.139  97.289   0.280  97.143   0.069  96.970   0.047  97.373   0.094  97.239   0.135  96.855   0.111  96.498   0.152  95.445   0.123  95.480   0.126  93.760   0.081  88.983   0.048  88.971   0.497
  67.000   1.675  97.819   0.188  98.261   0.185  98.012   0.162  98.013   0.330  97.653   0.141  97.372   0.273  97.252   0.069  97.026   0.045  97.451   0.097  97.313   0.133  96.913   0.109  96.566   0.153  95.509   0.124  95.563   0.128  93.873   0.081  89.183   0.046  89.144   0.501
  68.000   1.700  97.863   0.189  98.308   0.182  98.061   0.160  98.073   0.330  97.727   0.141  97.449   0.268  97.332   0.069  97.087   0.046  97.525   0.096  97.381   0.130  96.972   0.106  96.617   0.152  95.559   0.118  95.643   0.128  93.986   0.082  89.372   0.048  89.307   0.509
  69.000   1.725  97.911   0.186  98.350   0.181  97.917   0.251  98.132   0.333  97.796   0.141  97.528   0.265  97.396   0.070  97.158   0.043  97.595   0.097  97.446   0.127  97.027   0.105  96.670   0.150  95.610   0.117  95.719   0.127  94.094   0.080  89.559   0.047  89.481   0.511
  70.000   1.750  97.960   0.181  98.392   0.180  97.971   0.250  98.181   0.340  97.868   0.142  97.608   0.266  97.464   0.068  97.230   0.043  97.668   0.097  97.509   0.129  97.082   0.103  96.723   0.152  95.663   0.117  95.801   0.127  94.201   0.080  89.746   0.048  89.669   0.508
  71.000   1.775  98.000   0.177  98.427   0.178  98.023   0.251  98.226   0.343  97.939   0.141  97.681   0.265  97.541   0.062  97.300   0.041  97.739   0.099  97.576   0.132  97.137   0.104  96.780   0.153  95.722   0.113  95.883   0.128  94.307   0.079  89.931   0.049  89.848   0.504
  72.000   1.800  98.033   0.176  98.459   0.175  98.259   0.161  98.269   0.340  98.005   0.140  97.749   0.267  97.627   0.056  97.369   0.038  97.813   0.100  97.642   0.133  97.195   0.101  96.843   0.154  95.788   0.105  95.963   0.125  94.412   0.080  90.110   0.046  90.012   0.497
  73.000   1.825  98.062   0.175  98.503   0.180  98.300   0.161  98.308   0.341  98.069   0.141  97.816   0.271  97.702   0.055  97.437   0.044  97.886   0.099  97.706   0.137  97.250   0.098  96.912   0.159  95.848   0.103  96.036   0.124  94.514   0.082  90.291   0.042  90.171   0.491
  74.000   1.850  98.102   0.173  98.550   0.187  98.345   0.161  98.351   0.343  98.131   0.145  97.882   0.270  97.765   0.057  97.512   0.045  97.957   0.096  97.773   0.139  97.306   0.100  96.971   0.161  95.911   0.105  96.112   0.125  94.621   0.083  90.471   0.036  90.335   0.486
  75.000   1.875  98.140   0.169  98.590   0.186  98.381   0.160  98.387   0.339  98.190   0.146  97.946   0.269  97.829   0.053  97.580   0.044  98.022   0.095  97.835   0.138  97.366   0.103  97.015   0.159  95.981   0.107  96.191   0.124  94.725   0.079  90.646   0.034  90.492   0.478
  76.000   1.900  98.168   0.169  98.628   0.185  98.411   0.158  98.422   0.343  98.247   0.146  98.009   0.267  97.900   0.050  97.641   0.043  98.083   0.099  97.897   0.139  97.425   0.103  97.056   0.159  96.061   0.115  96.265   0.122  94.829   0.074  90.817   0.033  90.657   0.466
  77.000   1.925  98.200   0.171  98.667   0.182  98.445   0.158  98.459   0.352  98.295   0.147  98.063   0.267  97.975   0.054  97.698   0.043  98.141   0.102  97.956   0.141  97.484   0.102  97.098   0.159  96.108   0.120  96.336   0.123  94.930   0.071  90.991   0.037  90.815   0.459
  78.000   1.950  98.236   0.173  98.700   0.181  98.306   0.238  98.502   0.353  98.337   0.148  98.113   0.272  98.049   0.055  97.750   0.045  98.198   0.101  98.009   0.141  97.532   0.104  97.142   0.161  96.151   0.125  96.408   0.121  95.027   0.068  91.154   0.045  90.962   0.458
  79.000   1.975  98.278   0.175  98.732   0.184  98.347   0.241  98.536   0.345  98.376   0.151  98.169   0.277  98.111   0.051  97.805   0.042  98.256   0.101  98.062   0.139  97.582   0.107  97.195   0.164  96.197   0.131  96.480   0.121  95.121   0.067  91.317   0.049  91.110   0.458
  80.000   2.000  98.322   0.173  98.765   0.188  98.388   0.244  98.565   0.340  98.412   0.154  98.226   0.280  98.168   0.047  97.864   0.042  98.318   0.103  98.114   0.141  97.639   0.108  97.252   0.168  96.252   0.136  96.551   0.123  95.216   0.066  91.485   0.048  91.256   0.460
  81.000   2.025  98.375   0.170  98.802   0.186  98.428   0.247  98.608   0.346  98.461   0.152  98.274   0.280  98.230   0.045  97.921   0.043  98.380   0.106  98.166   0.143  97.697   0.108  97.304   0.167  96.300   0.140  96.625   0.123  95.248   0.027  91.653   0.047  91.392   0.455
  82.000   2.050  98.418   0.170  98.827   0.184  98.454   0.246  98.650   0.354  98.507   0.152  98.325   0.281  98.291   0.041  97.972   0.042  98.431   0.109  98.217   0.137  97.755   0.105  97.344   0.166  96.341   0.137  96.693   0.122  95.341   0.027  91.810   0.047  91.521   0.452
  83.000   2.075  98.453   0.171  98.857   0.189  98.666   0.167  98.687   0.355  98.548   0.150  98.376   0.283  98.349   0.038  98.027   0.043  98.483   0.111  98.268   0.132  97.808   0.105  97.379   0.165  96.378   0.138  96.761   0.120  95.485   0.061  91.964   0.050  91.649   0.449
  84.000   2.100  98.475   0.169  98.878   0.187  98.692   0.166  98.721   0.357  98.583   0.147  98.419   0.286  98.395   0.041  98.089   0.040  98.532   0.111  98.318   0.131  97.854   0.102  97.423   0.166  96.430   0.141  96.830   0.117  95.569   0.062  92.115   0.051  91.777   0.446
  85.000   2.125  98.500   0.168  98.889   0.185  98.715   0.164  98.752   0.344  98.620   0.146  98.467   0.284  98.432   0.043  98.140   0.039  98.580   0.112  98.364   0.129  97.899   0.102  97.477   0.167  96.497   0.140  96.892   0.114  95.652   0.060  92.263   0.053  91.911   0.442
  86.000   2.150  98.533   0.169  98.907   0.185  98.739   0.161  98.783   0.332  98.659   0.145  98.509   0.278  98.465   0.045  98.190   0.039  98.629   0.113  98.408   0.127  97.944   0.102  97.527   0.168  96.560   0.143  96.946   0.111  95.734   0.058  92.410   0.055  92.046   0.440
  87.000   2.175  98.558   0.168  98.924   0.185  98.765   0.159  98.807   0.324  98.699   0.144  98.546   0.275  98.501   0.049  98.247   0.039  98.681   0.112  98.452   0.125  97.990   0.102  97.588   0.169  96.631   0.146  97.004   0.112  95.814   0.058  92.559   0.057  92.180   0.434
  88.000   2.200  98.579   0.168  98.953   0.186  98.788   0.158  98.827   0.316  98.738   0.147  98.593   0.273  98.553   0.053  98.300   0.040  98.826   0.050  98.499   0.124  98.030   0.102  97.656   0.171  96.708   0.143  97.064   0.112  95.896   0.054  92.711   0.061  92.321   0.432
  89.000   2.225  98.617   0.170  98.982   0.189  98.810   0.158  98.856   0.311  98.780   0.143  98.644   0.272  98.602   0.051  98.348   0.042  98.873   0.048  98.549   0.122  98.080   0.106  97.703   0.173  96.764   0.140  97.122   0.111  95.977   0.054  92.852   0.063  92.468   0.430
  90.000   2.250  98.653   0.170  98.997   0.191  98.833   0.160  98.880   0.322  98.807   0.139  98.677   0.271  98.641   0.048  98.394   0.046  98.912   0.045  98.590   0.123  98.132   0.106  97.743   0.175  96.805   0.139  97.174   0.107  96.055   0.053  92.995   0.064  92.602   0.429
  91.000   2.275  98.685   0.165  99.015   0.190  98.857   0.162  98.888   0.323  98.829   0.137  98.703   0.272  98.678   0.048  98.435   0.050  98.950   0.042  98.626   0.123  98.180   0.102  97.785   0.173  96.838   0.140  97.225   0.105  96.133   0.051  93.135   0.067  92.721   0.423
  92.000   2.300  98.712   0.159  99.031   0.188  98.881   0.162  98.909   0.318  98.856   0.137  98.735   0.269  98.728   0.063  98.466   0.053  98.988   0.043  98.661   0.122  98.233   0.100  97.833   0.169  96.881   0.139  97.278   0.108  96.205   0.049  93.269   0.071  92.839   0.421
  93.000   2.325  98.728   0.157  99.043   0.186  98.904   0.161  98.920   0.322  98.878   0.136  98.773   0.266  98.770   0.069  98.499   0.051  99.026   0.040  98.700   0.121  98.274   0.097  97.876   0.165  96.931   0.137  97.331   0.110  96.271   0.049  93.399   0.069  92.959   0.419
  94.000   2.350  98.743   0.157  99.054   0.184  98.927   0.162  98.941   0.326  98.900   0.132  98.804   0.261  98.802   0.070  98.538   0.048  99.059   0.037  98.739   0.124  98.318   0.098  97.922   0.160  96.985   0.134  97.379   0.112  96.341   0.048  93.526   0.068  93.080   0.423
  95.000   2.375  98.757   0.161  99.075   0.184  98.945   0.161  98.970   0.330  98.926   0.127  98.841   0.256  98.823   0.067  98.577   0.049  99.096   0.035  98.778   0.125  98.361   0.100  97.970   0.158  97.044   0.133  97.435   0.112  96.418   0.046  93.658   0.068  93.200   0.425
  96.000   2.400  98.774   0.163  99.096   0.182  98.961   0.160  98.987   0.334  98.944   0.122  98.868   0.253  98.835   0.067  98.610   0.052  99.129   0.029  98.818   0.124  98.399   0.099  98.009   0.153  97.088   0.132  97.488   0.113  96.493   0.046  93.784   0.069  93.316   0.425
  97.000   2.425  98.794   0.164  99.118   0.184  98.982   0.160  98.992   0.339  98.961   0.122  98.888   0.249  98.860   0.068  98.645   0.052  99.156   0.026  98.858   0.125  98.434   0.097  98.054   0.148  97.128   0.130  97.540   0.116  96.563   0.045  93.908   0.072  93.428   0.420
  98.000   2.450  98.822   0.169  99.144   0.188  99.004   0.160  99.007   0.345  98.983   0.125  98.918   0.250  98.895   0.073  98.682   0.051  99.186   0.027  98.899   0.130  98.467   0.095  98.112   0.142  97.172   0.124  97.595   0.120  96.631   0.045  94.034   0.073  93.554   0.413
  99.000   2.475  98.853   0.169  99.170   0.186  99.024   0.159  99.032   0.342  99.004   0.126  98.953   0.252  98.930   0.074  98.719   0.049  99.212   0.028  98.934   0.132  98.507   0.093  98.167   0.132  97.223   0.121  97.646   0.121  96.701   0.049  94.150   0.073  93.676   0.411
 100.000   2.500  98.880   0.173  99.190   0.184  99.034   0.157  99.059   0.342  99.024   0.120  98.985   0.251  98.963   0.076  98.756   0.046  99.243   0.027  98.967   0.131  98.550   0.095  98.214   0.125  97.276   0.121  97.703   0.121  96.778   0.053  94.263   0.077  93.804   0.412
 102.000   2.550  98.925   0.179  99.081   0.129  99.072   0.160  99.095   0.348  99.065   0.111  99.047   0.250  98.999   0.081  98.826   0.048  99.311   0.028  99.036   0.131  98.625   0.097  98.314   0.123  97.396   0.121  97.821   0.125  96.918   0.051  94.346   0.168  94.070   0.436
 104.000   2.600  98.986   0.173  99.231   0.170  99.114   0.159  99.104   0.346  99.112   0.110  99.099   0.244  99.036   0.077  98.864   0.051  99.363   0.024  99.100   0.125  98.689   0.095  98.389   0.116  97.484   0.121  97.915   0.123  97.050   0.046  94.563   0.160  94.665   0.192
 106.000   2.650  99.033   0.166  99.258   0.169  99.138   0.154  99.139   0.341  99.147   0.109  99.141   0.234  99.085   0.068  98.904   0.050  99.418   0.024  99.141   0.117  98.668   0.038  98.454   0.104  97.571   0.111  98.006   0.125  97.129   0.018  94.782   0.150  94.842   0.185
 108.000   2.700  99.067   0.163  99.283   0.170  99.173   0.150  99.162   0.332  99.166   0.109  99.185   0.227  99.136   0.074  98.934   0.053  99.480   0.031  99.188   0.119  98.816   0.097  98.536   0.094  97.651   0.109  98.101   0.128  97.296   0.047  94.998   0.144  95.024   0.187
 110.000   2.750  99.095   0.159  99.321   0.161  99.209   0.154  99.177   0.342  99.195   0.116  99.225   0.218  99.173   0.080  98.998   0.046  99.545   0.039  99.251   0.118  98.883   0.095  98.613   0.084  97.717   0.110  98.194   0.128  97.364   0.023  95.203   0.134  94.824   0.419
 112.000   2.800  99.135   0.149  99.360   0.161  99.250   0.161  99.248   0.345  99.247   0.121  99.268   0.212  99.209   0.083  99.044   0.044  99.597   0.038  99.409   0.048  98.951   0.096  98.681   0.078  97.770   0.112  98.289   0.128  97.479   0.022  95.409   0.126  95.030   0.402
 114.000   2.850  99.188   0.145  99.400   0.167  99.269   0.157  99.255   0.369  99.273   0.127  99.311   0.221  99.246   0.076  99.096   0.039  99.626   0.031  99.450   0.049  98.998   0.097  98.740   0.084  97.820   0.106  98.501   0.054  97.605   0.025  95.607   0.123  95.207   0.406
 116.000   2.900  99.217   0.151  99.430   0.168  99.286   0.149  99.275   0.369  99.282   0.130  99.354   0.227  99.268   0.079  99.123   0.037  99.654   0.039  99.395   0.119  99.031   0.095  98.812   0.082  97.887   0.119  98.597   0.050  97.771   0.055  95.788   0.122  95.372   0.409
 118.000   2.950  99.264   0.153  99.463   0.172  99.330   0.153  99.293   0.386  99.305   0.129  99.379   0.230  99.315   0.081  99.156   0.034  99.698   0.030  99.437   0.124  99.078   0.089  98.876   0.088  97.938   0.119  98.670   0.046  97.886   0.053  95.984   0.121  95.548   0.419
 120.000   3.000  99.298   0.147  99.503   0.171  99.357   0.144  99.295   0.393  99.340   0.126  99.407   0.229  99.336   0.079  99.190   0.033  99.729   0.019  99.481   0.126  99.133   0.090  98.958   0.090  97.985   0.115  98.746   0.038  98.001   0.052  96.166   0.121  95.711   0.416
 122.000   3.050  99.336   0.142  99.529   0.181  99.370   0.142  99.304   0.411  99.353   0.134  99.439   0.219  99.366   0.073  99.225   0.037  99.759   0.024  99.505   0.127  99.177   0.089  99.002   0.099  98.041   0.108  98.815   0.041  98.106   0.055  96.333   0.120  95.881   0.380
 124.000   3.100  99.370   0.139  99.544   0.177  99.412   0.139  99.316   0.427  99.356   0.133  99.471   0.218  99.398   0.064  99.251   0.038  99.793   0.023  99.526   0.125  99.227   0.082  99.054   0.105  98.106   0.108  98.888   0.039  98.197   0.058  96.504   0.124  96.029   0.370
 126.000   3.150  99.393   0.135  99.543   0.171  99.422   0.131  99.320   0.424  99.257   0.054  99.495   0.218  99.417   0.073  99.281   0.043  99.826   0.024  99.558   0.130  99.259   0.077  99.078   0.108  98.177   0.088  98.944   0.035  98.286   0.053  96.673   0.121  96.165   0.362
 128.000   3.200  99.419   0.139  99.569   0.166  99.450   0.131  99.294   0.432  99.276   0.049  99.520   0.223  99.432   0.084  99.306   0.052  99.847   0.024  99.587   0.134  99.292   0.084  99.120   0.114  98.247   0.077  99.003   0.033  98.361   0.048  96.831   0.115  96.278   0.364
 130.000   3.250  99.456   0.142  99.582   0.160  99.488   0.134  99.343   0.427  99.326   0.040  99.543   0.219  99.451   0.080  99.335   0.049  99.893   0.024  99.614   0.133  99.327   0.087  99.165   0.111  98.307   0.080  99.067   0.024  98.445   0.041  96.984   0.105  96.415   0.359
 132.000   3.300  99.490   0.140  99.589   0.060  99.497   0.124  99.378   0.416  99.366   0.024  99.558   0.208  99.491   0.079  99.366   0.051  99.909   0.033  99.624   0.132  99.356   0.087  99.201   0.092  98.355   0.072  99.130   0.020  98.516   0.044  97.129   0.097  96.528   0.360
 134.000   3.350  99.550   0.145  99.597   0.054  99.504   0.116  99.396   0.408  99.389   0.019  99.574   0.212  99.525   0.070  99.400   0.050  99.927   0.036  99.647   0.125  99.381   0.087  99.255   0.072  98.420   0.075  99.182   0.019  98.590   0.049  97.280   0.098  96.630   0.367
 136.000   3.400  99.580   0.142  99.601   0.049  99.518   0.106  99.399   0.406  99.415   0.019  99.599   0.214  99.552   0.063  99.443   0.047  99.938   0.031  99.647   0.122  99.411   0.085  99.302   0.064  98.456   0.075  99.224   0.008  98.657   0.046  97.423   0.095  96.756   0.366
 138.000   3.450  99.607   0.139  99.548   0.093  99.552   0.107  99.452   0.433  99.450   0.019  99.636   0.213  99.566   0.067  99.465   0.050  99.946   0.031  99.670   0.122  99.447   0.088  99.335   0.058  98.523   0.074  99.274   0.021  98.723   0.054  97.556   0.104  96.894   0.377
 140.000   3.500  99.607   0.116  99.572   0.087  99.573   0.104  99.441   0.409  99.469   0.021  99.661   0.207  99.588   0.069  99.483   0.056  99.961   0.027  99.686   0.118  99.468   0.087  99.346   0.065  98.554   0.084  99.321   0.022  98.782   0.053  97.680   0.096  97.019   0.367
 142.000   3.550  99.613   0.100  99.597   0.084  99.590   0.099  99.471   0.383  99.485   0.015  99.681   0.197  99.465   0.171  99.515   0.048  99.987   0.036  99.703   0.112  99.474   0.097  99.370   0.060  98.580   0.086  99.366   0.020  98.834   0.046  97.804   0.091  97.132   0.348
 144.000   3.600  99.713   0.068  99.637   0.075  99.590   0.089  99.501   0.367  99.515   0.011  99.702   0.180  99.478   0.158  99.551   0.045  99.893   0.099  99.711   0.102  99.480   0.099  99.390   0.058  98.622   0.090  99.408   0.024  98.883   0.045  97.918   0.087  97.268   0.314
 146.000   3.650  99.686   0.103  99.644   0.074  99.599   0.088  99.535   0.359  99.558   0.014  99.717   0.178  99.495   0.156  99.578   0.047  99.906   0.102  99.742   0.092  99.496   0.088  99.415   0.052  98.675   0.095  99.388   0.071  98.949   0.040  98.027   0.082  97.390   0.294
 148.000   3.700  99.710   0.108  99.638   0.076  99.607   0.083  99.566   0.350  99.587   0.017  99.745   0.167  99.506   0.154  99.705   0.117  99.919   0.106  99.769   0.084  99.521   0.089  99.425   0.053  98.695   0.104  99.482   0.029  99.013   0.030  98.127   0.082  97.496   0.282
 150.000   3.750  99.732   0.112  99.657   0.076  99.639   0.086  99.586   0.336  99.681   0.054  99.762   0.154  99.536   0.158  99.711   0.117  99.938   0.101  99.794   0.087  99.560   0.089  99.436   0.058  98.715   0.100  99.437   0.070  99.068   0.028  98.227   0.075  97.590   0.290
 152.000   3.800  99.792   0.125  99.678   0.076  99.645   0.083  99.600   0.348  99.691   0.060  99.772   0.157  99.704   0.063  99.716   0.122  99.955   0.098  99.819   0.081  99.585   0.082  99.462   0.070  98.757   0.106  99.464   0.072  99.125   0.031  98.340   0.070  97.691   0.287
 154.000   3.850  99.813   0.125  99.705   0.075  99.660   0.082  99.631   0.335  99.728   0.059  99.789   0.154  99.587   0.149  99.746   0.121  99.956   0.101  99.831   0.084  99.604   0.088  99.498   0.075  98.789   0.100  99.500   0.078  99.136   0.015  98.433   0.076  97.787   0.286
 156.000   3.900  99.826   0.123  99.706   0.070  99.694   0.084  99.660   0.307  99.740   0.053  99.811   0.145  99.635   0.140  99.761   0.117  99.965   0.093  99.849   0.079  99.615   0.087  99.530   0.082  98.815   0.103  99.534   0.072  99.195   0.011  98.529   0.075  97.926   0.266
 158.000   3.950  99.826   0.116  99.715   0.077  99.725   0.091  99.663   0.290  99.806   0.023  99.807   0.142  99.667   0.141  99.769   0.112  99.957   0.088  99.854   0.084  99.636   0.077  99.535   0.074  98.830   0.104  99.558   0.060  99.244   0.013  98.608   0.071  98.037   0.261
 160.000   4.000  99.834   0.109  99.714   0.078  99.742   0.089  99.964   0.065  99.834   0.021  99.807   0.131  99.697   0.148  99.775   0.109  99.943   0.089  99.846   0.072  99.666   0.074  99.545   0.072  98.853   0.101  99.582   0.059  99.306   0.039  98.683   0.068  98.109   0.248
 162.000   4.050  99.843   0.104  99.734   0.073  99.760   0.086  99.726   0.280  99.796   0.044  99.804   0.119  99.694   0.141  99.772   0.108  99.954   0.083  99.847   0.058  99.680   0.060  99.566   0.076  98.877   0.096  99.602   0.063  99.344   0.039  98.765   0.063  98.166   0.252
 164.000   4.100  99.825   0.091  99.854   0.131  99.763   0.081  99.733   0.252  99.807   0.038  99.774   0.126  99.713   0.142  99.775   0.113  99.941   0.074  99.866   0.053  99.677   0.063  99.608   0.074  98.903   0.093  99.624   0.059  99.378   0.042  98.843   0.065  98.238   0.261
 166.000   4.150  99.800   0.083  99.875   0.126  99.787   0.084  99.964   0.054  99.820   0.035  99.769   0.126  99.843   0.050  99.772   0.106 100.018   0.031  99.886   0.049  99.710   0.067  99.481   0.160  98.959   0.088  99.634   0.062  99.414   0.045  98.909   0.069  98.338   0.246
 168.000   4.200  99.788   0.076  99.879   0.122  99.788   0.080  99.729   0.215  99.839   0.032  99.778   0.118  99.851   0.050  99.769   0.106  99.958   0.069  99.886   0.051  99.732   0.067  99.524   0.145  99.008   0.089  99.644   0.059  99.458   0.044  98.990   0.070  98.412   0.243
 170.000   4.250  99.797   0.071  99.884   0.119  99.794   0.071  99.733   0.217  99.848   0.033  99.783   0.108  99.750   0.140  99.799   0.107 100.002   0.025  99.879   0.038  99.740   0.069  99.570   0.140  99.035   0.075  99.614   0.022  99.502   0.045  99.048   0.072  98.490   0.239
 172.000   4.300  99.805   0.072  99.876   0.112  99.797   0.073  99.746   0.215  99.838   0.035  99.898   0.045  99.899   0.064  99.818   0.108  99.978   0.023  99.851   0.012  99.752   0.066  99.607   0.133  99.071   0.074  99.627   0.020  99.538   0.047  99.112   0.075  98.563   0.237
 174.000   4.350  99.825   0.075  99.798   0.062  99.811   0.075  99.741   0.215  99.832   0.041  99.902   0.045  99.893   0.059  99.835   0.114  99.982   0.022  99.853   0.010  99.755   0.065  99.622   0.142  99.096   0.069  99.678   0.050  99.524   0.017  99.169   0.080  98.819   0.111
 176.000   4.400  99.842   0.078  99.823   0.044  99.745   0.037  99.753   0.207  99.793   0.013  99.806   0.107  99.887   0.053  99.938   0.044  99.924   0.054  99.854   0.011  99.759   0.065  99.767   0.058  99.130   0.053  99.653   0.020  99.583   0.041  99.227   0.083  98.683   0.217
 178.000   4.450  99.876   0.078  99.903   0.070  99.752   0.038  99.726   0.232  99.790   0.006  99.811   0.106  99.896   0.037  99.942   0.042  99.918   0.064  99.853   0.015  99.767   0.066  99.659   0.135  99.153   0.045  99.671   0.017  99.602   0.040  99.282   0.086  98.743   0.223
 180.000   4.500  99.893   0.083  99.903   0.059  99.759   0.038  99.945   0.030  99.796   0.014  99.800   0.097  99.884   0.039  99.845   0.094  99.926   0.056  99.854   0.013  99.753   0.062  99.796   0.067  99.168   0.050  99.720   0.035  99.622   0.035  99.352   0.088  98.818   0.220
 182.000   4.550  99.879   0.089  99.870   0.031  99.784   0.038  99.989   0.043  99.794   0.015  99.819   0.100  99.772   0.131  99.847   0.079  99.945   0.057  99.866   0.014  99.770   0.071  99.842   0.060  99.217   0.043  99.756   0.042  99.657   0.039  99.410   0.088  98.936   0.208
 184.000   4.600  99.861   0.084  99.868   0.028  99.807   0.041  99.995   0.017  99.815   0.014  99.846   0.094  99.773   0.127  99.873   0.068  99.953   0.056  99.880   0.018  99.772   0.076  99.738   0.150  99.235   0.038  99.793   0.045  99.687   0.038  99.469   0.084  99.015   0.202
 186.000   4.650  99.831   0.046  99.867   0.027  99.801   0.034  99.958   0.003  99.856   0.036  99.845   0.081  99.778   0.114  99.900   0.060  99.959   0.053  99.889   0.006  99.782   0.076  99.765   0.150  99.290   0.037  99.817   0.053  99.678   0.015  99.527   0.079  99.081   0.194
 188.000   4.700  99.828   0.046  99.877   0.031  99.867   0.056  99.983   0.019  99.809   0.019  99.863   0.089  99.911   0.050  99.967   0.023  99.954   0.051  99.894   0.013  99.789   0.078  99.764   0.142  99.322   0.044  99.828   0.038  99.743   0.043  99.573   0.079  99.131   0.205
 190.000   4.750  99.830   0.043  99.894   0.038  99.819   0.093  99.812   0.181  99.874   0.064  99.875   0.086  99.925   0.043  99.966   0.018 100.004   0.019  99.906   0.020  99.805   0.082  99.777   0.138  99.372   0.050  99.845   0.031  99.726   0.017  99.612   0.080  99.186   0.197
 192.000   4.800  99.868   0.052  99.892   0.032  99.833   0.099 100.018   0.028  99.836   0.027  99.894   0.070  99.941   0.039  99.973   0.019  99.997   0.008  99.919   0.018  99.816   0.079  99.821   0.110  99.413   0.064  99.858   0.038  99.808   0.045  99.651   0.078  99.270   0.166
 194.000   4.850  99.827   0.032  99.871   0.032  99.852   0.087 100.021   0.000  99.906   0.060  99.908   0.052  99.864   0.080  99.982   0.020  99.999   0.011  99.965   0.040  99.836   0.074  99.829   0.090  99.437   0.059  99.874   0.041  99.832   0.038  99.697   0.074  99.317   0.169
 196.000   4.900  99.830   0.029  99.915   0.065  99.879   0.087  99.877   0.132  99.939   0.057  99.923   0.034  99.870   0.065  99.964   0.039  99.995   0.005  99.973   0.037  99.821   0.072  99.841   0.081  99.348   0.126  99.882   0.039  99.851   0.024  99.744   0.076  99.375   0.153
 198.000   4.950  99.873   0.045  99.919   0.055  99.839   0.068  99.978   0.012  99.949   0.051  99.932   0.021  99.862   0.068 100.008   0.005  99.981   0.011  99.974   0.041  99.843   0.062  99.932   0.036  99.379   0.118  99.890   0.027  99.878   0.028  99.783   0.074  99.441   0.131
 200.000   5.000  99.903   0.057  99.926   0.056  99.852   0.064  99.879   0.092 100.007   0.017  99.924   0.022  99.886   0.060  99.999   0.005  99.996   0.017  99.981   0.047  99.855   0.054  99.865   0.087  99.406   0.110  99.906   0.037  99.903   0.028  99.809   0.065  99.562   0.121
 202.000   5.050  99.960   0.071  99.936   0.067  99.870   0.052  99.900   0.085 100.012   0.020  99.949   0.037  99.899   0.053 100.001   0.011  99.966   0.037  99.940   0.017  99.914   0.019  99.901   0.082  99.538   0.035  99.915   0.039  99.909   0.027  99.840   0.064  99.609   0.131
 204.000   5.100  99.931   0.047  99.935   0.051  99.910   0.050  99.983   0.010  99.986   0.057  99.951   0.025  99.981   0.021  99.977   0.023  99.977   0.025  99.952   0.006  99.909   0.013  99.926   0.072  99.574   0.029  99.929   0.032  99.953   0.007  99.865   0.055  99.640   0.126
 206.000   5.150  99.963   0.016  99.947   0.051  99.927   0.040  99.991   0.006  99.971   0.051  99.955   0.026  99.998   0.017  99.963   0.028  99.989   0.026  99.959   0.009  99.893   0.025  99.929   0.059  99.635   0.052  99.945   0.020  99.917   0.032  99.882   0.050  99.680   0.113
 208.000   5.200  99.964   0.013  99.971   0.058  99.935   0.038 100.037   0.008  99.974   0.039  99.994   0.005  99.973   0.037  99.959   0.025 100.009   0.024  99.959   0.013  99.924   0.005  99.962   0.041  99.712   0.045  99.959   0.015  99.946   0.031  99.905   0.047  99.733   0.101
 210.000   5.250  99.965   0.008  99.957   0.044  99.957   0.029 100.076   0.006 100.009   0.013 100.018   0.010  99.971   0.027  99.974   0.034  99.990   0.024  99.973   0.012  99.923   0.018  99.980   0.034  99.842   0.012  99.965   0.016  99.977   0.012  99.925   0.041  99.755   0.028
 212.000   5.300  99.935   0.017  99.916   0.020  99.978   0.037 100.126   0.010  99.982   0.041 100.054   0.017  99.978   0.025  99.992   0.035 100.002   0.018 100.010   0.018  99.950   0.016 100.000   0.033  99.882   0.014  99.968   0.019  99.962   0.033  99.959   0.028  99.855   0.048
 214.000   5.350  99.946   0.021  99.948   0.007  99.996   0.030 100.109   0.016  99.986   0.037 100.007   0.038  99.984   0.027  99.990   0.023  99.985   0.004  99.997   0.009  99.956   0.013  99.991   0.029  99.911   0.015  99.958   0.019  99.966   0.033  99.966   0.013  99.898   0.035
 216.000   5.400  99.991   0.019  99.952   0.002  99.976   0.016 100.066   0.013 100.001   0.029 100.028   0.008  99.983   0.027 100.001   0.019  99.992   0.006  99.999   0.010  99.976   0.003  99.988   0.027  99.905   0.045  99.965   0.013  99.971   0.025  99.983   0.001  99.935   0.035
 218.000   5.450  99.994   0.022  99.974   0.010 100.000   0.020 100.021   0.032 100.013   0.001 100.005   0.011  99.995   0.022  99.997   0.006  99.996   0.003 100.000   0.009  99.997   0.010 100.003   0.016  99.958   0.011  99.994   0.010  99.973   0.002 100.005   0.002  99.966   0.029
 220.000   5.500 100.000   0.000 100.000   0.000 100.000   0.000 100.000   0.000 100.000   0.000 100.000   0.000 100.000   0.000 100.000   0.000 100.000   0.000 100.000   0.000 100.000   0.000 100.000   0.000 100.000   0.000 100.000   0.000 100.000   0.000 100.000   0.000 100.000   0.000
